# TEMP	<E>	sigma_E	Cv	F(T)	S(T)
0.000480		0.000124	0.000779	2.633341	0.028644	-59.415701
0.000530		0.000320	0.001226	5.352455	0.031606	-59.030772
0.000580		0.000671	0.001715	8.746845	0.034543	-58.399179
0.000630		0.001187	0.002158	11.735963	0.037442	-57.546969
0.000680		0.001820	0.002480	13.297912	0.040295	-56.580968
0.000730		0.002490	0.002659	13.271447	0.043100	-55.630321
0.000780		0.003131	0.002734	12.282389	0.045860	-54.780460
0.000830		0.003715	0.002765	11.100225	0.048581	-54.054302
0.000880		0.004247	0.002815	10.233560	0.051267	-53.432377
0.000930		0.004748	0.002928	9.911432	0.053925	-52.878414
0.000980		0.005248	0.003130	10.203611	0.056556	-52.354508
0.001030		0.005779	0.003434	11.115001	0.059160	-51.826811
0.001080		0.006370	0.003837	12.622315	0.061738	-51.266767
0.001130		0.007050	0.004328	14.670836	0.064286	-50.651403
0.001180		0.007844	0.004887	17.155260	0.066802	-49.964118
0.001230		0.008770	0.005488	19.906194	0.069281	-49.196054
0.001280		0.009835	0.006098	22.699224	0.071720	-48.347331
0.001330		0.011037	0.006689	25.292534	0.074115	-47.427152
0.001380		0.012358	0.007234	27.482102	0.076462	-46.452107
0.001430		0.013776	0.007721	29.149900	0.078759	-45.442866
0.001480		0.015264	0.008144	30.282287	0.081006	-44.420241
0.001530		0.016797	0.008512	30.952879	0.083201	-43.401890
0.001580		0.018354	0.008837	31.283328	0.085346	-42.400516
0.001630		0.019921	0.009134	31.402666	0.087442	-41.423636
0.001680		0.021492	0.009417	31.419849	0.089489	-40.474441
0.001730		0.023063	0.009696	31.413132	0.091490	-39.553083
0.001780		0.024634	0.009979	31.431951	0.093445	-38.657896
0.001830		0.026207	0.010272	31.504577	0.095356	-37.786294
0.001880		0.027786	0.010576	31.646138	0.097224	-36.935328
0.001930		0.029373	0.010895	31.864232	0.099050	-36.101996
0.001980		0.030973	0.011229	32.161519	0.100834	-35.283392
0.002030		0.032590	0.011579	32.536035	0.102578	-34.476822
0.002080		0.034228	0.011945	32.980376	0.104282	-33.679899
0.002130		0.035889	0.012325	33.480858	0.105946	-32.890653
0.002180		0.037577	0.012715	34.017369	0.107571	-32.107646
0.002230		0.039291	0.013110	34.564254	0.109157	-31.330060
0.002280		0.041033	0.013506	35.092201	0.110704	-30.557742
0.002330		0.042800	0.013896	35.570822	0.112213	-29.791204
0.002380		0.044589	0.014274	35.971504	0.113684	-29.031557
0.002430		0.046395	0.014635	36.270047	0.115116	-28.280394
0.002480		0.048214	0.014972	36.448700	0.116512	-27.539644
0.002530		0.050038	0.015284	36.497320	0.117871	-26.811396
0.002580		0.051861	0.015569	36.413606	0.119193	-26.097743
0.002630		0.053677	0.015824	36.202469	0.120481	-25.400627
0.002680		0.055479	0.016052	35.874776	0.121734	-24.721732
0.002730		0.057263	0.016253	35.445728	0.122953	-24.062404
0.002780		0.059023	0.016431	34.933150	0.124140	-23.423613
0.002830		0.060755	0.016588	34.355901	0.125296	-22.805950
0.002880		0.062457	0.016727	33.732564	0.126421	-22.209643
0.002930		0.064128	0.016852	33.080465	0.127517	-21.634600
0.002980		0.065765	0.016966	32.415046	0.128585	-21.080455
0.003030		0.067369	0.017073	31.749531	0.129626	-20.546620
0.003080		0.068940	0.017175	31.094842	0.130640	-20.032340
0.003130		0.070479	0.017275	30.459683	0.131629	-19.536739
0.003180		0.071987	0.017374	29.850733	0.132594	-19.058859
0.003230		0.073465	0.017476	29.272902	0.133535	-18.597698
0.003280		0.074915	0.017581	28.729595	0.134454	-18.152237
0.003330		0.076338	0.017691	28.222976	0.135351	-17.721460
0.003380		0.077738	0.017807	27.754205	0.136226	-17.304374
0.003430		0.079114	0.017929	27.323637	0.137081	-16.900016
0.003480		0.080471	0.018059	26.930997	0.137917	-16.507467
0.003530		0.081808	0.018198	26.575515	0.138732	-16.125854
0.003580		0.083129	0.018344	26.256034	0.139529	-15.754354
0.003630		0.084434	0.018499	25.971094	0.140308	-15.392197
0.003680		0.085726	0.018663	25.719000	0.141069	-15.038667
0.003730		0.087007	0.018835	25.497869	0.141812	-14.693099
0.003780		0.088277	0.019015	25.305669	0.142538	-14.354883
0.003830		0.089538	0.019204	25.140253	0.143248	-14.023459
0.003880		0.090791	0.019400	24.999382	0.143941	-13.698318
0.003930		0.092038	0.019603	24.880750	0.144617	-13.378999
0.003980		0.093280	0.019813	24.782006	0.145279	-13.065090
0.004030		0.094517	0.020029	24.700771	0.145924	-12.756220
0.004080		0.095750	0.020250	24.634661	0.146554	-12.452066
0.004130		0.096980	0.020476	24.581305	0.147169	-12.152341
0.004180		0.098208	0.020706	24.538366	0.147770	-11.856801
0.004230		0.099434	0.020939	24.503562	0.148355	-11.565235
0.004280		0.100659	0.021174	24.474682	0.148926	-11.277467
0.004330		0.101882	0.021410	24.449608	0.149483	-10.993353
0.004380		0.103104	0.021647	24.426330	0.150026	-10.712777
0.004430		0.104324	0.021884	24.402966	0.150554	-10.435648
0.004480		0.105544	0.022119	24.377769	0.151069	-10.161901
0.004530		0.106762	0.022353	24.349147	0.151570	-9.891490
0.004580		0.107979	0.022584	24.315666	0.152058	-9.624386
0.004630		0.109194	0.022812	24.276061	0.152533	-9.360578
0.004680		0.110406	0.023036	24.229240	0.152994	-9.100067
0.004730		0.111616	0.023256	24.174284	0.153443	-8.842865
0.004780		0.112823	0.023471	24.110445	0.153879	-8.588991
0.004830		0.114027	0.023680	24.037148	0.154302	-8.338472
0.004880		0.115227	0.023884	23.953980	0.154713	-8.091338
0.004930		0.116422	0.024082	23.860684	0.155111	-7.847623
0.004980		0.117613	0.024273	23.757149	0.155498	-7.607360
0.005030		0.118798	0.024458	23.643401	0.155872	-7.370583
0.005080		0.119977	0.024636	23.519591	0.156235	-7.137322
0.005130		0.121150	0.024808	23.385979	0.156586	-6.907608
0.005180		0.122316	0.024973	23.242925	0.156925	-6.681463
0.005230		0.123474	0.025132	23.090871	0.157254	-6.458908
0.005280		0.124624	0.025284	22.930335	0.157571	-6.239959
0.005330		0.125767	0.025429	22.761888	0.157878	-6.024624
0.005380		0.126901	0.025568	22.586151	0.158174	-5.812907
0.005430		0.128025	0.025702	22.403778	0.158459	-5.604805
0.005480		0.129141	0.025829	22.215446	0.158735	-5.400310
0.005530		0.130247	0.025951	22.021846	0.158999	-5.199408
0.005580		0.131343	0.026067	21.823673	0.159255	-5.002077
0.005630		0.132429	0.026179	21.621620	0.159500	-4.808293
0.005680		0.133505	0.026286	21.416366	0.159735	-4.618023
0.005730		0.134571	0.026388	21.208577	0.159962	-4.431231
0.005780		0.135626	0.026487	20.998896	0.160179	-4.247876
0.005830		0.136671	0.026581	20.787939	0.160386	-4.067913
0.005880		0.137705	0.026672	20.576295	0.160585	-3.891291
0.005930		0.138728	0.026760	20.364520	0.160776	-3.717957
0.005980		0.139741	0.026846	20.153138	0.160957	-3.547856
0.006030		0.140743	0.026928	19.942639	0.161130	-3.380928
0.006080		0.141735	0.027009	19.733476	0.161295	-3.217112
0.006130		0.142717	0.027087	19.526069	0.161452	-3.056343
0.006180		0.143688	0.027164	19.320802	0.161601	-2.898557
0.006230		0.144649	0.027240	19.118027	0.161742	-2.743686
0.006280		0.145600	0.027315	18.918062	0.161876	-2.591664
0.006330		0.146541	0.027389	18.721193	0.162001	-2.442420
0.006380		0.147472	0.027462	18.527678	0.162120	-2.295887
0.006430		0.148394	0.027535	18.337743	0.162231	-2.151995
0.006480		0.149306	0.027608	18.151591	0.162335	-2.010674
0.006530		0.150209	0.027681	17.969397	0.162432	-1.871854
0.006580		0.151103	0.027754	17.791316	0.162522	-1.735468
0.006630		0.151988	0.027828	17.617478	0.162606	-1.601447
0.006680		0.152865	0.027903	17.447997	0.162682	-1.469722
0.006730		0.153733	0.027978	17.282969	0.162753	-1.340227
0.006780		0.154593	0.028055	17.122472	0.162817	-1.212895
0.006830		0.155445	0.028133	16.966573	0.162874	-1.087662
0.006880		0.156290	0.028212	16.815326	0.162925	-0.964462
0.006930		0.157127	0.028293	16.668775	0.162971	-0.843232
0.006980		0.157957	0.028376	16.526956	0.163010	-0.723910
0.007030		0.158780	0.028461	16.389899	0.163043	-0.606436
0.007080		0.159596	0.028547	16.257626	0.163070	-0.490748
0.007130		0.160406	0.028636	16.130160	0.163092	-0.376789
0.007180		0.161209	0.028727	16.007519	0.163108	-0.264500
0.007230		0.162006	0.028820	15.889724	0.163119	-0.153824
0.007280		0.162798	0.028916	15.776795	0.163123	-0.044707
0.007330		0.163584	0.029015	15.668758	0.163123	0.062908
0.007380		0.164365	0.029117	15.565642	0.163117	0.169073
0.007430		0.165141	0.029221	15.467484	0.163106	0.273842
0.007480		0.165912	0.029329	15.374330	0.163090	0.377267
0.007530		0.166678	0.029441	15.286235	0.163068	0.479398
0.007580		0.167440	0.029555	15.203268	0.163042	0.580288
0.007630		0.168199	0.029674	15.125510	0.163010	0.679986
0.007680		0.168953	0.029797	15.053062	0.162974	0.778542
0.007730		0.169704	0.029924	14.986040	0.162933	0.876006
0.007780		0.170452	0.030056	14.924583	0.162886	0.972427
0.007830		0.171197	0.030193	14.868853	0.162835	1.067855
0.007880		0.171939	0.030334	14.819037	0.162780	1.162339
0.007930		0.172679	0.030482	14.775352	0.162719	1.255930
0.007980		0.173416	0.030635	14.738045	0.162654	1.348679
0.008030		0.174153	0.030795	14.707400	0.162584	1.440635
0.008080		0.174887	0.030962	14.683738	0.162510	1.531852
0.008130		0.175621	0.031136	14.667422	0.162431	1.622382
0.008180		0.176354	0.031319	14.658860	0.162348	1.712281
0.008230		0.177087	0.031510	14.658512	0.162260	1.801605
0.008280		0.177820	0.031710	14.666891	0.162168	1.890412
0.008330		0.178554	0.031921	14.684568	0.162071	1.978762
0.008380		0.179289	0.032143	14.712180	0.161970	2.066719
0.008430		0.180025	0.032377	14.750433	0.161864	2.154348
0.008480		0.180764	0.032623	14.800108	0.161754	2.241718
0.008530		0.181506	0.032884	14.862065	0.161640	2.328902
0.008580		0.182250	0.033161	14.937255	0.161521	2.415977
0.008630		0.183000	0.033454	15.026720	0.161398	2.503024
0.008680		0.183753	0.033765	15.131602	0.161271	2.590128
0.008730		0.184513	0.034095	15.253152	0.161139	2.677382
0.008780		0.185279	0.034447	15.392736	0.161003	2.764883
0.008830		0.186053	0.034822	15.551839	0.160863	2.852734
0.008880		0.186835	0.035221	15.732078	0.160718	2.941046
0.008930		0.187626	0.035648	15.935205	0.160569	3.029938
0.008980		0.188428	0.036103	16.163115	0.160415	3.119535
0.009030		0.189243	0.036589	16.417853	0.160257	3.209975
0.009080		0.190071	0.037108	16.701621	0.160094	3.301400
0.009130		0.190914	0.037663	17.016783	0.159927	3.393967
0.009180		0.191773	0.038255	17.365867	0.159755	3.487840
0.009230		0.192651	0.038888	17.751573	0.159578	3.583198
0.009280		0.193549	0.039565	18.176771	0.159396	3.680230
0.009330		0.194469	0.040286	18.644503	0.159210	3.779138
0.009380		0.195414	0.041056	19.157979	0.159018	3.880138
0.009430		0.196386	0.041877	19.720576	0.158822	3.983460
0.009480		0.197387	0.042750	20.335821	0.158620	4.089348
0.009530		0.198420	0.043680	21.007389	0.158413	4.198062
0.009580		0.199489	0.044667	21.739078	0.158200	4.309877
0.009630		0.200595	0.045714	22.534793	0.157982	4.425083
0.009680		0.201743	0.046824	23.398515	0.157758	4.543988
0.009730		0.202936	0.047998	24.334268	0.157527	4.666914
0.009780		0.204178	0.049237	25.346076	0.157291	4.794198
0.009830		0.205472	0.050544	26.437920	0.157048	4.926196
0.009880		0.206823	0.051918	27.613672	0.156798	5.063275
0.009930		0.208235	0.053361	28.877035	0.156541	5.205816
0.009980		0.209712	0.054873	30.231463	0.156277	5.354214
0.010030		0.211260	0.056454	31.680078	0.156006	5.508873
0.010080		0.212882	0.058103	33.225574	0.155726	5.670206
0.010130		0.214584	0.059819	34.870112	0.155439	5.838632
0.010180		0.216371	0.061600	36.615208	0.155142	6.014573
0.010230		0.218247	0.063444	38.461609	0.154837	6.198450
0.010280		0.220219	0.065348	40.409173	0.154522	6.390680
0.010330		0.222290	0.067309	42.456734	0.154198	6.591669
0.010380		0.224466	0.069323	44.601974	0.153863	6.801812
0.010430		0.226752	0.071384	46.841293	0.153518	7.021481
0.010480		0.229151	0.073487	49.169690	0.153161	7.251024
0.010530		0.231670	0.075626	51.580657	0.152792	7.490757
0.010580		0.234311	0.077794	54.066082	0.152412	7.740954
0.010630		0.237078	0.079984	56.616181	0.152018	8.001846
0.010680		0.239973	0.082187	59.219464	0.151611	8.273611
0.010730		0.243000	0.084395	61.862719	0.151190	8.556364
0.010780		0.246160	0.086597	64.531056	0.150755	8.850155
0.010830		0.249453	0.088785	67.207981	0.150305	9.154962
0.010880		0.252881	0.090948	69.875524	0.149840	9.470680
0.010930		0.256441	0.093075	72.514417	0.149358	9.797123
0.010980		0.260131	0.095156	75.104327	0.148860	10.134017
0.011030		0.263950	0.097179	77.624131	0.148344	10.480996
0.011080		0.267892	0.099135	80.052241	0.147811	10.837604
0.011130		0.271953	0.101012	82.366967	0.147261	11.203292
0.011180		0.276127	0.102799	84.546908	0.146691	11.577422
0.011230		0.280405	0.104488	86.571368	0.146103	11.959270
0.011280		0.284781	0.106068	88.420764	0.145495	12.348035
0.011330		0.289244	0.107532	90.077042	0.144868	12.742839
0.011380		0.293785	0.108870	91.524057	0.144221	13.142743
0.011430		0.298393	0.110077	92.747923	0.143553	13.546754
0.011480		0.303056	0.111147	93.737311	0.142866	13.953835
0.011530		0.307762	0.112075	94.483679	0.142158	14.362922
0.011580		0.312500	0.112857	94.981442	0.141430	14.772932
0.011630		0.317256	0.113491	95.228056	0.140681	15.182781
0.011680		0.322019	0.113977	95.224026	0.139911	15.591391
0.011730		0.326775	0.114314	94.972838	0.139122	15.997708
0.011780		0.331512	0.114503	94.480818	0.138312	16.400715
0.011830		0.336219	0.114548	93.756918	0.137482	16.799437
0.011880		0.340884	0.114451	92.812457	0.136632	17.192954
0.011930		0.345497	0.114217	91.660806	0.135762	17.580413
0.011980		0.350047	0.113852	90.317056	0.134874	17.961027
0.012030		0.354525	0.113362	88.797650	0.133966	18.334088
0.012080		0.358924	0.112752	87.120026	0.133041	18.698965
0.012130		0.363235	0.112032	85.302255	0.132097	19.055111
0.012180		0.367452	0.111207	83.362700	0.131135	19.402057
0.012230		0.371570	0.110287	81.319700	0.130157	19.739418
0.012280		0.375583	0.109279	79.191286	0.129161	20.066888
0.012330		0.379488	0.108192	76.994931	0.128150	20.384234
0.012380		0.383281	0.107033	74.747340	0.127123	20.691298
0.012430		0.386962	0.105812	72.464283	0.126081	20.987989
0.012480		0.390528	0.104535	70.160462	0.125025	21.274277
0.012530		0.393978	0.103211	67.849419	0.123954	21.550190
0.012580		0.397313	0.101846	65.543476	0.122870	21.815807
0.012630		0.400532	0.100449	63.253710	0.121772	22.071252
0.012680		0.403638	0.099026	60.989951	0.120663	22.316689
0.012730		0.406632	0.097583	58.760802	0.119541	22.552317
0.012780		0.409515	0.096125	56.573687	0.118408	22.778362
0.012830		0.412290	0.094660	54.434898	0.117263	22.995078
0.012880		0.414960	0.093191	52.349669	0.116108	23.202734
0.012930		0.417526	0.091723	50.322247	0.114943	23.401617
0.012980		0.419993	0.090261	48.355974	0.113768	23.592024
0.013030		0.422363	0.088808	46.453369	0.112584	23.774262
0.013080		0.424639	0.087368	44.616207	0.111391	23.948639
0.013130		0.426825	0.085944	42.845605	0.110189	24.115468
0.013180		0.428925	0.084539	41.142095	0.108980	24.275061
0.013230		0.430941	0.083155	39.505702	0.107762	24.427726
0.013280		0.432877	0.081794	37.936011	0.106537	24.573769
0.013330		0.434735	0.080459	36.432233	0.105305	24.713488
0.013380		0.436521	0.079150	34.993264	0.104066	24.847175
0.013430		0.438236	0.077868	33.617740	0.102820	24.975115
0.013480		0.439884	0.076616	32.304084	0.101568	25.097584
0.013530		0.441467	0.075393	31.050550	0.100310	25.214847
0.013580		0.442990	0.074201	29.855261	0.099047	25.327162
0.013630		0.444454	0.073040	28.716247	0.097778	25.434775
0.013680		0.445862	0.071910	27.631468	0.096503	25.537923
0.013730		0.447218	0.070811	26.598844	0.095224	25.636833
0.013780		0.448523	0.069744	25.616277	0.093940	25.731721
0.013830		0.449780	0.068708	24.681669	0.092651	25.822795
0.013880		0.450992	0.067704	23.792934	0.091358	25.910250
0.013930		0.452160	0.066730	22.948018	0.090060	25.994274
0.013980		0.453287	0.065788	22.144904	0.088758	26.075046
0.014030		0.454375	0.064875	21.381623	0.087453	26.152734
0.014080		0.455426	0.063992	20.656259	0.086143	26.227497
0.014130		0.456442	0.063139	19.966958	0.084830	26.299489
0.014180		0.457423	0.062314	19.311929	0.083513	26.368853
0.014230		0.458373	0.061518	18.689444	0.082193	26.435725
0.014280		0.459293	0.060749	18.097846	0.080870	26.500233
0.014330		0.460184	0.060008	17.535545	0.079543	26.562500
0.014380		0.461047	0.059292	17.001021	0.078213	26.622640
0.014430		0.461884	0.058602	16.492820	0.076881	26.680762
0.014480		0.462697	0.057937	16.009559	0.075545	26.736968
0.014530		0.463485	0.057297	15.549918	0.074207	26.791356
0.014580		0.464252	0.056680	15.112642	0.072866	26.844017
0.014630		0.464997	0.056086	14.696541	0.071523	26.895037
0.014680		0.465722	0.055514	14.300482	0.070177	26.944498
0.014730		0.466427	0.054964	13.923393	0.068828	26.992477
0.014780		0.467115	0.054434	13.564259	0.067477	27.039046
0.014830		0.467784	0.053925	13.222117	0.066124	27.084274
0.014880		0.468437	0.053436	12.896056	0.064769	27.128225
0.014930		0.469074	0.052965	12.585214	0.063412	27.170960
0.014980		0.469696	0.052513	12.288779	0.062052	27.212538
0.015030		0.470303	0.052078	12.005981	0.060690	27.253013
0.015080		0.470897	0.051661	11.736092	0.059327	27.292435
0.015130		0.471477	0.051260	11.478426	0.057961	27.330854
0.015180		0.472045	0.050875	11.232336	0.056594	27.368315
0.015230		0.472600	0.050506	10.997209	0.055224	27.404862
0.015280		0.473145	0.050151	10.772468	0.053853	27.440536
0.015330		0.473678	0.049811	10.557569	0.052480	27.475375
0.015380		0.474200	0.049484	10.351996	0.051106	27.509417
0.015430		0.474713	0.049171	10.155265	0.049729	27.542695
0.015480		0.475216	0.048871	9.966918	0.048351	27.575242
0.015530		0.475710	0.048583	9.786523	0.046972	27.607091
0.015580		0.476195	0.048307	9.613672	0.045591	27.638269
0.015630		0.476671	0.048043	9.447981	0.044208	27.668805
0.015680		0.477140	0.047790	9.289086	0.042824	27.698725
0.015730		0.477600	0.047547	9.136644	0.041438	27.728055
0.015780		0.478054	0.047315	8.990333	0.040051	27.756817
0.015830		0.478500	0.047092	8.849846	0.038662	27.785035
0.015880		0.478939	0.046879	8.714895	0.037273	27.812729
0.015930		0.479371	0.046676	8.585208	0.035881	27.839921
0.015980		0.479797	0.046481	8.460527	0.034489	27.866629
0.016030		0.480217	0.046295	8.340609	0.033095	27.892871
0.016080		0.480631	0.046117	8.225225	0.031699	27.918666
0.016130		0.481040	0.045947	8.114157	0.030303	27.944029
0.016180		0.481443	0.045785	8.007200	0.028905	27.968976
0.016230		0.481841	0.045630	7.904160	0.027506	27.993522
0.016280		0.482233	0.045482	7.804853	0.026106	28.017681
0.016330		0.482621	0.045341	7.709104	0.024704	28.041468
0.016380		0.483004	0.045206	7.616751	0.023301	28.064894
0.016430		0.483383	0.045078	7.527636	0.021898	28.087972
0.016480		0.483757	0.044956	7.441612	0.020493	28.110714
0.016530		0.484127	0.044840	7.358540	0.019086	28.133131
0.016580		0.484493	0.044730	7.278288	0.017679	28.155234
0.016630		0.484855	0.044625	7.200729	0.016271	28.177032
0.016680		0.485213	0.044526	7.125744	0.014862	28.198537
0.016730		0.485568	0.044431	7.053222	0.013451	28.219756
0.016780		0.485919	0.044342	6.983054	0.012040	28.240699
0.016830		0.486266	0.044257	6.915139	0.010627	28.261374
0.016880		0.486610	0.044177	6.849381	0.009213	28.281789
0.016930		0.486951	0.044102	6.785687	0.007799	28.301953
0.016980		0.487289	0.044030	6.723972	0.006383	28.321873
0.017030		0.487623	0.043963	6.664152	0.004967	28.341555
0.017080		0.487955	0.043900	6.606148	0.003549	28.361007
0.017130		0.488284	0.043840	6.549886	0.002131	28.380235
0.017180		0.488610	0.043785	6.495294	0.000711	28.399245
0.017230		0.488934	0.043733	6.442305	-0.000709	28.418044
0.017280		0.489254	0.043684	6.390854	-0.002131	28.436637
0.017330		0.489573	0.043639	6.340881	-0.003553	28.455030
0.017380		0.489889	0.043597	6.292325	-0.004976	28.473228
0.017430		0.490202	0.043558	6.245133	-0.006400	28.491236
0.017480		0.490513	0.043522	6.199250	-0.007825	28.509059
0.017530		0.490822	0.043489	6.154625	-0.009251	28.526702
0.017580		0.491129	0.043459	6.111211	-0.010678	28.544170
0.017630		0.491433	0.043432	6.068962	-0.012106	28.561466
0.017680		0.491735	0.043407	6.027833	-0.013534	28.578595
0.017730		0.492036	0.043385	5.987782	-0.014963	28.595561
0.017780		0.492334	0.043366	5.948769	-0.016394	28.612369
0.017830		0.492631	0.043348	5.910756	-0.017825	28.629020
0.017880		0.492925	0.043333	5.873706	-0.019257	28.645520
0.017930		0.493218	0.043321	5.837584	-0.020689	28.661872
